 Time in recording [s],#192_F_Querlnk_hl_mR [kN]
0,0
0.002,0.00232469
0.004,0.00464938
0.006,0.00774897
0.008,0.0100737
0.01,0.0123984
0.012,0.0147231
0.014,0.0170477
0.016,0.0193724
0.018,0.0216971
0.02,0.0240218
0.022,0.0255716
0.024,0.0278963
0.026,0.0294461
0.028,0.0317708
0.03,0.0333206
0.032,0.0348704
0.034,0.0371951
0.036,0.0387449
0.038,0.0402947
0.04,0.0418445
0.042,0.0433943
0.044,0.044944
0.046,0.0464938
0.048,0.0480436
0.05,0.0488185
0.052,0.0503683
0.054,0.0519181
0.056,0.0534679
0.058,0.0550177
0.06,0.0557926
0.062,0.0573424
0.064,0.0588922
0.066,0.060442
0.068,0.0612169
0.07,0.0627667
0.072,0.0643165
0.074,0.0650914
0.076,0.0666412
0.078,0.0674161
0.08,0.0689659
0.082,0.0705157
0.084,0.0712906
0.086,0.0728404
0.088,0.0743902
0.09,0.0759399
0.092,0.0767148
0.094,0.0782646
0.096,0.0798144
0.098,0.0805893
0.1,0.0821391
0.102,0.082914
0.104,0.0844638
0.106,0.0852387
0.108,0.0867885
0.11,0.0883383
0.112,0.0898881
0.114,0.0914379
0.116,0.0922128
0.118,0.0937626
0.12,0.0945375
0.122,0.0960873
0.124,0.0968622
0.126,0.0976371
0.128,0.098412
0.13,0.0999618
0.132,0.100737
0.134,0.102286
0.136,0.103836
0.138,0.105386
0.14,0.106936
0.142,0.108486
0.144,0.110035
0.146,0.111585
0.148,0.11236
0.15,0.113135
0.152,0.114685
0.154,0.11546
0.156,0.11701
0.158,0.118559
0.16,0.120109
0.162,0.121659
0.164,0.123209
0.166,0.124758
0.168,0.126308
0.17,0.127858
0.172,0.129408
0.174,0.130183
0.176,0.131733
0.178,0.132507
0.18,0.134057
0.182,0.134832
0.184,0.137157
0.186,0.138707
0.188,0.140256
0.19,0.142581
0.192,0.144906
0.194,0.146456
0.196,0.148005
0.198,0.149555
0.2,0.15033
0.202,0.15188
0.204,0.152655
0.206,0.154205
0.208,0.155754
0.21,0.157304
0.212,0.159629
0.214,0.161954
0.216,0.164278
0.218,0.166603
0.22,0.168153
0.222,0.169703
0.224,0.171252
0.226,0.172027
0.228,0.172802
0.23,0.173577
0.232,0.174352
0.234,0.175127
0.236,0.175902
0.238,0.177452
0.24,0.178226
0.242,0.179776
0.244,0.181326
0.246,0.182876
0.248,0.184426
0.25,0.185975
0.252,0.18675
0.254,0.1883
0.256,0.189075
0.258,0.190625
0.26,0.1914
0.262,0.192949
0.264,0.194499
0.266,0.196049
0.268,0.197599
0.27,0.199149
0.272,0.199924
0.274,0.201473
0.276,0.202248
0.278,0.203023
0.28,0.203798
0.282,0.204573
0.284,0.206123
0.286,0.206898
0.288,0.207673
0.29,0.209222
0.292,0.209997
0.294,0.210772
0.296,0.211547
0.298,0.212322
0.3,0.213097
0.302,0.213872
0.304,0.214647
0.306,0.215421
0.308,0.216196
0.31,0.217746
0.312,0.218521
0.314,0.220071
0.316,0.220846
0.318,0.222396
0.32,0.22317
0.322,0.223945
0.324,0.223945
0.326,0.22472
0.328,0.225495
0.33,0.22627
0.332,0.227045
0.334,0.22782
0.336,0.22937
0.338,0.230145
0.34,0.231694
0.342,0.232469
0.344,0.233244
0.346,0.233244
0.348,0.233244
0.35,0.233244
0.352,0.233244
0.354,0.233244
0.356,0.233244
0.358,0.234794
0.36,0.235569
0.362,0.237119
0.364,0.239443
0.366,0.240993
0.368,0.243318
0.37,0.244093
0.372,0.245642
0.374,0.246417
0.376,0.247192
0.378,0.247192
0.38,0.247967
0.382,0.249517
0.384,0.250292
0.386,0.251842
0.388,0.253391
0.39,0.255716
0.392,0.256491
0.394,0.258041
0.396,0.258816
0.398,0.259591
0.4,0.259591
0.402,0.259591
0.404,0.259591
0.406,0.260366
0.408,0.26114
0.41,0.261915
0.412,0.263465
0.414,0.265015
0.416,0.266565
0.418,0.268115
0.42,0.269664
0.422,0.270439
0.424,0.271989
0.426,0.272764
0.428,0.273539
0.43,0.274314
0.432,0.275089
0.434,0.276638
0.436,0.278963
0.438,0.280513
0.44,0.282063
0.442,0.284387
0.444,0.285162
0.446,0.285937
0.448,0.286712
0.45,0.286712
0.452,0.286712
0.454,0.287487
0.456,0.287487
0.458,0.288262
0.46,0.289037
0.462,0.289812
0.464,0.290587
0.466,0.292136
0.468,0.292136
0.47,0.292911
0.472,0.292911
0.474,0.292136
0.476,0.291361
0.478,0.290587
0.48,0.289812
0.482,0.289812
0.484,0.290587
0.486,0.291361
0.488,0.292136
0.49,0.292911
0.492,0.293686
0.494,0.293686
0.496,0.293686
0.498,0.292911
0.5,0.292136
0.502,0.291361
0.504,0.290587
0.506,0.289812
0.508,0.289812
0.51,0.289812
0.512,0.289812
0.514,0.290587
0.516,0.290587
0.518,0.290587
0.52,0.289812
0.522,0.289037
0.524,0.287487
0.526,0.286712
0.528,0.285162
0.53,0.285162
0.532,0.285162
0.534,0.285937
0.536,0.287487
0.538,0.289812
0.54,0.291361
0.542,0.293686
0.544,0.295236
0.546,0.296011
0.548,0.296011
0.55,0.295236
0.552,0.294461
0.554,0.293686
0.556,0.292911
0.558,0.292136
0.56,0.292911
0.562,0.293686
0.564,0.295236
0.566,0.296786
0.568,0.298335
0.57,0.29911
0.572,0.299885
0.574,0.30066
0.576,0.30066
0.578,0.30066
0.58,0.30066
0.582,0.301435
0.584,0.302985
0.586,0.304535
0.588,0.306859
0.59,0.309959
0.592,0.312284
0.594,0.315383
0.596,0.317708
0.598,0.320033
0.6,0.321582
0.602,0.323132
0.604,0.324682
0.606,0.327007
0.608,0.329331
0.61,0.331656
0.612,0.334756
0.614,0.337855
0.616,0.34173
0.618,0.344829
0.62,0.348704
0.622,0.351803
0.624,0.355678
0.626,0.358777
0.628,0.361877
0.63,0.365752
0.632,0.369626
0.634,0.373501
0.636,0.377375
0.638,0.382024
0.64,0.385124
0.642,0.388224
0.644,0.391323
0.646,0.393648
0.648,0.395198
0.65,0.396747
0.652,0.399072
0.654,0.401397
0.656,0.403722
0.658,0.407596
0.66,0.411471
0.662,0.41612
0.664,0.421544
0.666,0.426194
0.668,0.430068
0.67,0.434717
0.672,0.437817
0.674,0.440917
0.676,0.444016
0.678,0.446341
0.68,0.44944
0.682,0.453315
0.684,0.457189
0.686,0.461064
0.688,0.464938
0.69,0.468038
0.692,0.471138
0.694,0.472687
0.696,0.473462
0.698,0.474237
0.7,0.473462
0.702,0.473462
0.704,0.473462
0.706,0.474237
0.708,0.476562
0.71,0.478887
0.712,0.482761
0.714,0.486636
0.716,0.489735
0.718,0.492835
0.72,0.495934
0.722,0.497484
0.724,0.498259
0.726,0.498259
0.728,0.498259
0.73,0.499034
0.732,0.499809
0.734,0.501359
0.736,0.502908
0.738,0.506008
0.74,0.508333
0.742,0.510657
0.744,0.512982
0.746,0.515307
0.748,0.516082
0.75,0.517631
0.752,0.518406
0.754,0.519956
0.756,0.522281
0.758,0.52538
0.76,0.52848
0.762,0.533129
0.764,0.537779
0.766,0.543203
0.768,0.547852
0.77,0.551727
0.772,0.555601
0.774,0.558701
0.776,0.561801
0.778,0.564125
0.78,0.568
0.782,0.571874
0.784,0.575749
0.786,0.580398
0.788,0.585822
0.79,0.590472
0.792,0.595121
0.794,0.598996
0.796,0.602095
0.798,0.60442
0.8,0.60597
0.802,0.60752
0.804,0.609069
0.806,0.611394
0.808,0.613719
0.81,0.616043
0.812,0.619143
0.814,0.621468
0.816,0.623792
0.818,0.624567
0.82,0.625342
0.822,0.625342
0.824,0.624567
0.826,0.623017
0.828,0.622243
0.83,0.622243
0.832,0.622243
0.834,0.623792
0.836,0.625342
0.838,0.627667
0.84,0.629992
0.842,0.631541
0.844,0.632316
0.846,0.632316
0.848,0.632316
0.85,0.631541
0.852,0.630767
0.854,0.629992
0.856,0.629992
0.858,0.631541
0.86,0.633866
0.862,0.636966
0.864,0.64084
0.866,0.64394
0.868,0.646264
0.87,0.648589
0.872,0.649364
0.874,0.650139
0.876,0.650139
0.878,0.650139
0.88,0.650139
0.882,0.651689
0.884,0.653239
0.886,0.655563
0.888,0.658663
0.89,0.661762
0.892,0.664087
0.894,0.666412
0.896,0.668736
0.898,0.670286
0.9,0.671061
0.902,0.672611
0.904,0.674936
0.906,0.678035
0.908,0.68191
0.91,0.686559
0.912,0.691983
0.914,0.698183
0.916,0.702832
0.918,0.708256
0.92,0.712131
0.922,0.71523
0.924,0.717555
0.926,0.720655
0.928,0.723754
0.93,0.728404
0.932,0.733828
0.934,0.740802
0.936,0.749326
0.938,0.758625
0.94,0.767923
0.942,0.776447
0.944,0.784971
0.946,0.791945
0.948,0.798144
0.95,0.803569
0.952,0.808993
0.954,0.813642
0.956,0.819841
0.958,0.826041
0.96,0.83379
0.962,0.841539
0.964,0.850062
0.966,0.858586
0.968,0.866335
0.97,0.874084
0.972,0.881058
0.974,0.888032
0.976,0.895006
0.978,0.90353
0.98,0.913604
0.982,0.924453
0.984,0.936851
0.986,0.950024
0.988,0.963972
0.99,0.977146
0.992,0.989544
0.994,1.00039
0.996,1.00892
0.998,1.01667
1,1.02286
1.002,1.02674
1.004,1.03139
1.006,1.03759
1.008,1.04534
1.01,1.05464
1.012,1.06548
1.014,1.07711
1.016,1.08873
1.018,1.10035
1.02,1.1112
1.022,1.12128
1.024,1.13058
1.026,1.1391
1.028,1.14762
1.03,1.15692
1.032,1.167
1.034,1.17862
1.036,1.19102
1.038,1.20419
1.04,1.21659
1.042,1.22821
1.044,1.23829
1.046,1.24603
1.048,1.25223
1.05,1.25611
1.052,1.25921
1.054,1.26153
1.056,1.26463
1.058,1.26928
1.06,1.27471
1.062,1.28168
1.064,1.28943
1.066,1.29795
1.068,1.30648
1.07,1.315
1.072,1.32197
1.074,1.32817
1.076,1.3336
1.078,1.33825
1.08,1.34367
1.082,1.34832
1.084,1.35452
1.086,1.36072
1.088,1.36769
1.09,1.37467
1.092,1.38087
1.094,1.38784
1.096,1.39327
1.098,1.39869
1.1,1.40411
1.102,1.40876
1.104,1.41496
1.106,1.42116
1.108,1.42891
1.11,1.43743
1.112,1.44673
1.114,1.45526
1.116,1.46456
1.118,1.47231
1.12,1.4785
1.122,1.48315
1.124,1.48703
1.126,1.4909
1.128,1.494
1.13,1.49788
1.132,1.5033
1.134,1.5095
1.136,1.51725
1.138,1.52577
1.14,1.53507
1.142,1.5436
1.144,1.55134
1.146,1.55832
1.148,1.56374
1.15,1.56839
1.152,1.57227
1.154,1.57769
1.156,1.58389
1.158,1.59164
1.16,1.60171
1.162,1.61411
1.164,1.62728
1.166,1.64201
1.168,1.65673
1.17,1.67145
1.172,1.68463
1.174,1.6978
1.176,1.70942
1.178,1.72105
1.18,1.73267
1.182,1.74584
1.184,1.75979
1.186,1.77606
1.188,1.79311
1.19,1.81171
1.192,1.83108
1.194,1.84968
1.196,1.86828
1.198,1.8861
1.2,1.90237
1.202,1.91787
1.204,1.93259
1.206,1.94809
1.208,1.96436
1.21,1.98141
1.212,2.00001
1.214,2.02016
1.216,2.04185
1.218,2.06433
1.22,2.08757
1.222,2.11005
1.224,2.13174
1.226,2.15344
1.228,2.17436
1.23,2.19528
1.232,2.21621
1.234,2.23868
1.236,2.26115
1.238,2.28595
1.24,2.31152
1.242,2.33864
1.244,2.36731
1.246,2.39598
1.248,2.42543
1.25,2.4541
1.252,2.482
1.254,2.50989
1.256,2.53624
1.258,2.56181
1.26,2.58738
1.262,2.61218
1.264,2.63698
1.266,2.66177
1.268,2.68734
1.27,2.71369
1.272,2.74081
1.274,2.76948
1.276,2.79893
1.278,2.82915
1.28,2.86015
1.282,2.89114
1.284,2.92214
1.286,2.95158
1.288,2.98026
1.29,3.00738
1.292,3.03295
1.294,3.05697
1.296,3.07944
1.298,3.10114
1.3,3.12284
1.302,3.14531
1.304,3.16856
1.306,3.19413
1.308,3.22047
1.31,3.24914
1.312,3.27782
1.314,3.30726
1.316,3.33516
1.318,3.36151
1.32,3.38553
1.322,3.40567
1.324,3.42272
1.326,3.43589
1.328,3.44674
1.33,3.45527
1.332,3.46224
1.334,3.46922
1.336,3.47696
1.338,3.48549
1.34,3.49634
1.342,3.50951
1.344,3.52346
1.346,3.53818
1.348,3.55213
1.35,3.56375
1.352,3.57305
1.354,3.57925
1.356,3.58003
1.358,3.5777
1.36,3.5715
1.362,3.56375
1.364,3.55445
1.366,3.54671
1.368,3.54128
1.37,3.53896
1.372,3.54128
1.374,3.54593
1.376,3.55368
1.378,3.56143
1.38,3.5684
1.382,3.57073
1.384,3.5684
1.386,3.5591
1.388,3.54283
1.39,3.52036
1.392,3.49324
1.394,3.46457
1.396,3.43589
1.398,3.4111
1.4,3.39018
1.402,3.37545
1.404,3.36693
1.406,3.36305
1.408,3.36151
1.41,3.36073
1.412,3.35841
1.414,3.35221
1.416,3.34058
1.418,3.32431
1.42,3.30339
1.422,3.27859
1.424,3.25302
1.426,3.22745
1.428,3.20343
1.43,3.18095
1.432,3.16158
1.434,3.14298
1.436,3.12439
1.438,3.10579
1.44,3.08564
1.442,3.06239
1.444,3.0376
1.446,3.01125
1.448,2.9849
1.45,2.96011
1.452,2.93764
1.454,2.91904
1.456,2.90354
1.458,2.89192
1.46,2.88339
1.462,2.87564
1.464,2.8679
1.466,2.85937
1.468,2.84852
1.47,2.8369
1.472,2.8245
1.474,2.8121
1.476,2.7997
1.478,2.78963
1.48,2.78111
1.482,2.77413
1.484,2.76871
1.486,2.76406
1.488,2.75786
1.49,2.75089
1.492,2.74236
1.494,2.73229
1.496,2.72144
1.498,2.71214
1.5,2.70517
1.502,2.70207
1.504,2.70284
1.506,2.70827
1.508,2.71757
1.51,2.72841
1.512,2.73926
1.514,2.74934
1.516,2.75631
1.518,2.76018
1.52,2.76096
1.522,2.76096
1.524,2.76096
1.526,2.76406
1.528,2.77103
1.53,2.78421
1.532,2.80358
1.534,2.82683
1.536,2.85395
1.538,2.88262
1.54,2.90896
1.542,2.93144
1.544,2.94926
1.546,2.96166
1.548,2.96941
1.55,2.97328
1.552,2.97638
1.554,2.97948
1.556,2.98568
1.558,2.9942
1.56,3.00583
1.562,3.01978
1.564,3.0345
1.566,3.04845
1.568,3.05929
1.57,3.06704
1.572,3.07169
1.574,3.07324
1.576,3.07324
1.578,3.07324
1.58,3.07479
1.582,3.07867
1.584,3.08564
1.586,3.09572
1.588,3.10734
1.59,3.11896
1.592,3.12904
1.594,3.13678
1.596,3.14066
1.598,3.14143
1.6,3.13988
1.602,3.13601
1.604,3.13214
1.606,3.12981
1.608,3.12981
1.61,3.13214
1.612,3.13756
1.614,3.14453
1.616,3.15306
1.618,3.16081
1.62,3.16778
1.622,3.17398
1.624,3.17785
1.626,3.18173
1.628,3.18483
1.63,3.18948
1.632,3.1949
1.634,3.20343
1.636,3.2135
1.638,3.22512
1.64,3.2383
1.642,3.25147
1.644,3.26387
1.646,3.27627
1.648,3.28789
1.65,3.29874
1.652,3.31036
1.654,3.32199
1.656,3.33516
1.658,3.34988
1.66,3.36538
1.662,3.38088
1.664,3.39638
1.666,3.4111
1.668,3.42427
1.67,3.43589
1.672,3.44674
1.674,3.45682
1.676,3.46689
1.678,3.47851
1.68,3.49169
1.682,3.50719
1.684,3.52423
1.686,3.54206
1.688,3.5591
1.69,3.57538
1.692,3.58855
1.694,3.5994
1.696,3.60715
1.698,3.61257
1.7,3.61722
1.702,3.62187
1.704,3.62729
1.706,3.63427
1.708,3.64357
1.71,3.65364
1.712,3.66371
1.714,3.67224
1.716,3.67766
1.718,3.67921
1.72,3.67534
1.722,3.66759
1.724,3.65597
1.726,3.64202
1.728,3.62729
1.73,3.6149
1.732,3.60405
1.734,3.5963
1.736,3.59165
1.738,3.58932
1.74,3.587
1.742,3.58545
1.744,3.58313
1.746,3.58003
1.748,3.57538
1.75,3.5715
1.752,3.5684
1.754,3.5684
1.756,3.57073
1.758,3.5777
1.76,3.58777
1.762,3.60095
1.764,3.61412
1.766,3.62729
1.768,3.63814
1.77,3.64589
1.772,3.64977
1.774,3.64977
1.776,3.64822
1.778,3.64434
1.78,3.64047
1.782,3.63737
1.784,3.63582
1.786,3.63427
1.788,3.63427
1.79,3.63272
1.792,3.63117
1.794,3.62729
1.796,3.62187
1.798,3.61567
1.8,3.60947
1.802,3.60482
1.804,3.6025
1.806,3.6025
1.808,3.60715
1.81,3.61335
1.812,3.62187
1.814,3.62962
1.816,3.63504
1.818,3.63737
1.82,3.63504
1.822,3.62962
1.824,3.6211
1.826,3.6118
1.828,3.60327
1.83,3.59785
1.832,3.59707
1.834,3.60172
1.836,3.61102
1.838,3.62342
1.84,3.63737
1.842,3.64899
1.844,3.65674
1.846,3.65907
1.848,3.65597
1.85,3.64744
1.852,3.63427
1.854,3.61955
1.856,3.60482
1.858,3.59242
1.86,3.5839
1.862,3.5808
1.864,3.5808
1.866,3.58468
1.868,3.59087
1.87,3.59707
1.872,3.6025
1.874,3.60637
1.876,3.60792
1.878,3.60792
1.88,3.60637
1.882,3.60482
1.884,3.60405
1.886,3.60405
1.888,3.6056
1.89,3.6087
1.892,3.61412
1.894,3.62187
1.896,3.63272
1.898,3.64667
1.9,3.66526
1.902,3.68851
1.904,3.71718
1.906,3.75128
1.908,3.78925
1.91,3.83032
1.912,3.87139
1.914,3.90936
1.916,3.94268
1.918,3.96902
1.92,3.9853
1.922,3.99227
1.924,3.98995
1.926,3.97987
1.928,3.96592
1.93,3.94888
1.932,3.93338
1.934,3.92098
1.936,3.91401
1.938,3.91401
1.94,3.91943
1.942,3.93183
1.944,3.94733
1.946,3.9667
1.948,3.98685
1.95,4.00622
1.952,4.02327
1.954,4.03644
1.956,4.04419
1.958,4.04496
1.96,4.03799
1.962,4.02172
1.964,3.99847
1.966,3.96747
1.968,3.93183
1.97,3.89386
1.972,3.85821
1.974,3.82877
1.976,3.80785
1.978,3.8001
1.98,3.80475
1.982,3.82334
1.984,3.85124
1.986,3.88611
1.988,3.92176
1.99,3.95353
1.992,3.976
1.994,3.98607
1.996,3.9822
1.998,3.96438
2,3.93648
2.002,3.90161
2.004,3.86519
2.006,3.83264
2.008,3.8063
2.01,3.78925
2.012,3.78305
2.014,3.78615
2.016,3.79777
2.018,3.81559
2.02,3.83807
2.022,3.86364
2.024,3.89231
2.026,3.92486
2.028,3.9636
2.03,4.00777
2.032,4.06046
2.034,4.11935
2.036,4.1829
2.038,4.24799
2.04,4.31075
2.042,4.36732
2.044,4.41227
2.046,4.44404
2.048,4.46186
2.05,4.46573
2.052,4.45876
2.054,4.44559
2.056,4.42854
2.058,4.41149
2.06,4.39677
2.062,4.38437
2.064,4.3743
2.066,4.36345
2.068,4.34872
2.07,4.32858
2.072,4.30223
2.074,4.26891
2.076,4.23249
2.078,4.19529
2.08,4.16352
2.082,4.14105
2.084,4.13175
2.086,4.13795
2.088,4.15965
2.09,4.19374
2.092,4.23559
2.094,4.28053
2.096,4.32315
2.098,4.3588
2.1,4.38437
2.102,4.39909
2.104,4.40452
2.106,4.40529
2.108,4.40297
2.11,4.40374
2.112,4.40917
2.114,4.42234
2.116,4.44249
2.118,4.46883
2.12,4.49905
2.122,4.52928
2.124,4.55795
2.126,4.58352
2.128,4.60599
2.13,4.62459
2.132,4.64241
2.134,4.66023
2.136,4.68038
2.138,4.70285
2.14,4.72765
2.142,4.75322
2.144,4.77802
2.146,4.80049
2.148,4.81754
2.15,4.82916
2.152,4.83536
2.154,4.83768
2.156,4.83846
2.158,4.84156
2.16,4.84776
2.162,4.85938
2.164,4.87643
2.166,4.89813
2.168,4.92215
2.17,4.94539
2.172,4.96632
2.174,4.98182
2.176,4.99266
2.178,4.99886
2.18,5.00351
2.182,5.00894
2.184,5.01669
2.186,5.02986
2.188,5.04846
2.19,5.07093
2.192,5.0934
2.194,5.112
2.196,5.12285
2.198,5.12285
2.2,5.1089
2.202,5.08255
2.204,5.04768
2.206,5.00894
2.208,4.97174
2.21,4.94307
2.212,4.92757
2.214,4.92757
2.216,4.94152
2.218,4.96632
2.22,4.99576
2.222,5.02288
2.224,5.03916
2.226,5.04071
2.228,5.02443
2.23,4.99034
2.232,4.94385
2.234,4.89038
2.236,4.83923
2.238,4.79662
2.24,4.76872
2.242,4.75865
2.244,4.76562
2.246,4.78654
2.248,4.81521
2.25,4.84543
2.252,4.86946
2.254,4.88263
2.256,4.88418
2.258,4.8741
2.26,4.85706
2.262,4.83691
2.264,4.82141
2.266,4.81444
2.268,4.81986
2.27,4.83846
2.272,4.86791
2.274,4.90433
2.276,4.94307
2.278,4.97949
2.28,5.00971
2.282,5.03296
2.284,5.05001
2.286,5.06395
2.288,5.0779
2.29,5.09495
2.292,5.11665
2.294,5.14299
2.296,5.17012
2.298,5.19259
2.3,5.20344
2.302,5.19491
2.304,5.16314
2.306,5.1058
2.308,5.02521
2.31,4.92757
2.312,4.82219
2.314,4.72145
2.316,4.63544
2.318,4.57422
2.32,4.54245
2.322,4.53935
2.324,4.56027
2.326,4.59592
2.328,4.63466
2.33,4.66411
2.332,4.67496
2.334,4.66178
2.336,4.62459
2.338,4.5688
2.34,4.50525
2.342,4.44636
2.344,4.40607
2.346,4.39444
2.348,4.41847
2.35,4.47968
2.352,4.57189
2.354,4.68658
2.356,4.80824
2.358,4.9237
2.36,5.01824
2.362,5.08255
2.364,5.11277
2.366,5.10735
2.368,5.07325
2.37,5.01979
2.372,4.95779
2.374,4.89735
2.376,4.84776
2.378,4.81521
2.38,4.79971
2.382,4.80204
2.384,4.81599
2.386,4.83768
2.388,4.86093
2.39,4.8803
2.392,4.89503
2.394,4.902
2.396,4.90278
2.398,4.89735
2.4,4.88728
2.402,4.87178
2.404,4.85086
2.406,4.82296
2.408,4.78732
2.41,4.7416
2.412,4.68735
2.414,4.62614
2.416,4.56415
2.418,4.50603
2.42,4.46031
2.422,4.43241
2.424,4.42776
2.426,4.44869
2.428,4.49208
2.43,4.55407
2.432,4.62691
2.434,4.69975
2.436,4.76329
2.438,4.80979
2.44,4.83458
2.442,4.83691
2.444,4.82064
2.446,4.79197
2.448,4.76019
2.45,4.73617
2.452,4.72765
2.454,4.74005
2.456,4.77492
2.458,4.82916
2.46,4.89658
2.462,4.96787
2.464,5.03296
2.466,5.08255
2.468,5.10967
2.47,5.11045
2.472,5.08643
2.474,5.04303
2.476,4.98801
2.478,4.93222
2.48,4.88573
2.482,4.85861
2.484,4.85706
2.486,4.88573
2.488,4.9423
2.49,5.02134
2.492,5.11665
2.494,5.21506
2.496,5.3065
2.498,5.37856
2.5,5.42118
2.502,5.42893
2.504,5.39716
2.506,5.32742
2.508,5.22591
2.51,5.0996
2.512,4.96089
2.514,4.82219
2.516,4.6951
2.518,4.58972
2.52,4.513
2.522,4.46728
2.524,4.45024
2.526,4.45721
2.528,4.47891
2.53,4.50448
2.532,4.52463
2.534,4.5316
2.536,4.52153
2.538,4.4944
2.54,4.45566
2.542,4.41304
2.544,4.37662
2.546,4.35725
2.548,4.36112
2.55,4.39444
2.552,4.45489
2.554,4.53702
2.556,4.63001
2.558,4.723
2.56,4.80281
2.562,4.86016
2.564,4.88728
2.566,4.88495
2.568,4.85706
2.57,4.81366
2.572,4.76562
2.574,4.7261
2.576,4.7044
2.578,4.70595
2.58,4.73307
2.582,4.78034
2.584,4.84001
2.586,4.90123
2.588,4.95237
2.59,4.98646
2.592,4.99886
2.594,4.99111
2.596,4.96942
2.598,4.94462
2.6,4.92757
2.602,4.92835
2.604,4.95624
2.606,5.01204
2.608,5.09263
2.61,5.19104
2.612,5.29255
2.614,5.38244
2.616,5.4483
2.618,5.47775
2.62,5.46458
2.622,5.40801
2.624,5.3127
2.626,5.18794
2.628,5.04613
2.63,4.90045
2.632,4.76252
2.634,4.64164
2.636,4.544
2.638,4.47116
2.64,4.42234
2.642,4.39289
2.644,4.3774
2.646,4.36965
2.648,4.36345
2.65,4.35492
2.652,4.33943
2.654,4.3154
2.656,4.28131
2.658,4.23714
2.66,4.18522
2.662,4.1302
2.664,4.07596
2.666,4.03102
2.668,4.00389
2.67,4.00312
2.672,4.03644
2.674,4.11083
2.676,4.22707
2.678,4.38282
2.68,4.5688
2.682,4.77337
2.684,4.97794
2.686,5.16547
2.688,5.31812
2.69,5.42196
2.692,5.46845
2.694,5.45838
2.696,5.39794
2.698,5.30107
2.7,5.18871
2.702,5.08023
2.704,4.99731
2.706,4.95624
2.708,4.96709
2.71,5.03296
2.712,5.14842
2.714,5.30185
2.716,5.4762
2.718,5.65055
2.72,5.80553
2.722,5.92332
2.724,5.98996
2.726,5.99771
2.728,5.94346
2.73,5.83033
2.732,5.66682
2.734,5.46613
2.736,5.24296
2.738,5.01514
2.74,4.79894
2.742,4.61064
2.744,4.46263
2.746,4.36422
2.748,4.3185
2.75,4.32238
2.752,4.3681
2.754,4.44016
2.756,4.52153
2.758,4.59282
2.76,4.63544
2.762,4.63621
2.764,4.58662
2.766,4.48743
2.768,4.34872
2.77,4.18677
2.772,4.02172
2.774,3.87681
2.776,3.77065
2.778,3.71718
2.78,3.72183
2.782,3.78072
2.784,3.88069
2.786,4.00544
2.788,4.13408
2.79,4.25031
2.792,4.34175
2.794,4.40607
2.796,4.44869
2.798,4.48278
2.8,4.5254
2.802,4.59204
2.804,4.69433
2.806,4.83381
2.808,5.00351
2.81,5.18406
2.812,5.34989
2.814,5.47233
2.816,5.52502
2.818,5.49092
2.82,5.36539
2.822,5.16082
2.824,4.902
2.826,4.62459
2.828,4.3712
2.83,4.1798
2.832,4.08216
2.834,4.09301
